# potential_V=0.4
time,current
5.063272e-02,3.981484e-06
1.006327e-01,3.412701e-06
1.510770e-01,2.749120e-06
2.006340e-01,2.198291e-06
2.506320e-01,1.935248e-06
3.010770e-01,1.737965e-06
3.506330e-01,1.580139e-06
4.006340e-01,1.457072e-06
4.506330e-01,1.350916e-06
5.006330e-01,1.264487e-06
5.506330e-01,1.184634e-06
6.006330e-01,1.120752e-06
6.510750e-01,1.059689e-06
7.006320e-01,1.004638e-06
7.506330e-01,9.566320e-07
8.006320e-01,9.163300e-07
8.506320e-01,8.770620e-07
9.006330e-01,8.440870e-07
9.506360e-01,8.111130e-07
1.000633e+00,7.836810e-07
1.050633e+00,7.558740e-07
1.100632e+00,7.325760e-07
1.150633e+00,7.084320e-07
1.200633e+00,6.887040e-07
1.250633e+00,6.677540e-07
1.300633e+00,6.505620e-07
1.350633e+00,6.319610e-07
1.400633e+00,6.173060e-07
1.450632e+00,6.005840e-07
1.500633e+00,5.877140e-07
1.550633e+00,5.728710e-07
1.600632e+00,5.616910e-07
1.650632e+00,5.479750e-07
1.700632e+00,5.381110e-07
1.750633e+00,5.257110e-07
1.800632e+00,5.170680e-07
1.850634e+00,5.056070e-07
1.900633e+00,4.978090e-07
1.950632e+00,4.871000e-07
2.000632e+00,4.805240e-07
2.050633e+00,4.707530e-07
2.100633e+00,4.646470e-07
2.150632e+00,4.552530e-07
2.200633e+00,4.500860e-07
2.250632e+00,4.411610e-07
2.300633e+00,4.365580e-07
2.350632e+00,4.281970e-07
2.400633e+00,4.243450e-07
2.450633e+00,4.161720e-07
2.500633e+00,4.127900e-07
2.550633e+00,4.049920e-07
2.600633e+00,4.020800e-07
2.650632e+00,3.944710e-07
2.700633e+00,3.920280e-07
2.750632e+00,3.847940e-07
2.800635e+00,3.827280e-07
2.850633e+00,3.757760e-07
2.900632e+00,3.740850e-07
2.950633e+00,3.671330e-07
3.000633e+00,3.658180e-07
3.050632e+00,3.591480e-07
3.100632e+00,3.581140e-07
3.150633e+00,3.515380e-07
3.200633e+00,3.508810e-07
3.250632e+00,3.444920e-07
3.300633e+00,3.440230e-07
3.350633e+00,3.376350e-07
3.400633e+00,3.375410e-07
3.450632e+00,3.313400e-07
3.500633e+00,3.313400e-07
3.550633e+00,3.252340e-07
3.600632e+00,3.254220e-07
3.650632e+00,3.195030e-07
3.700635e+00,3.198790e-07
3.750633e+00,3.139610e-07
3.800633e+00,3.144300e-07
3.850633e+00,3.087940e-07
3.900633e+00,3.093570e-07
3.950633e+00,3.038150e-07
4.000633e+00,3.044720e-07
4.050633e+00,2.991170e-07
4.100632e+00,2.998690e-07
4.150633e+00,2.946080e-07
4.200632e+00,2.953600e-07
4.250633e+00,2.903810e-07
4.300633e+00,2.911320e-07
4.350632e+00,2.861530e-07
4.400633e+00,2.869990e-07
4.450633e+00,2.822080e-07
4.500633e+00,2.831470e-07
4.550633e+00,2.782620e-07
4.600633e+00,2.793890e-07
4.650634e+00,2.745980e-07
4.700633e+00,2.758190e-07
4.750633e+00,2.709340e-07
4.800633e+00,2.722490e-07
4.850633e+00,2.674580e-07
4.900633e+00,2.689610e-07
4.950633e+00,2.640760e-07
5.000633e+00,2.655790e-07
5.050632e+00,2.609760e-07
5.100632e+00,2.625730e-07
5.150633e+00,2.577820e-07
5.200632e+00,2.595670e-07
5.250632e+00,2.548700e-07
5.300633e+00,2.566550e-07
5.350633e+00,2.518640e-07
5.400633e+00,2.537420e-07
5.450632e+00,2.491390e-07
5.500634e+00,2.510180e-07
5.550635e+00,2.464150e-07
5.600633e+00,2.483880e-07
5.650633e+00,2.437840e-07
5.700632e+00,2.458510e-07
5.750633e+00,2.412480e-07
5.800632e+00,2.434090e-07
5.850633e+00,2.388050e-07
5.900634e+00,2.410600e-07
5.950633e+00,2.362690e-07
6.000633e+00,2.387110e-07
6.050632e+00,2.339200e-07
6.100632e+00,2.363630e-07
6.150633e+00,2.316660e-07
6.200633e+00,2.341080e-07
6.250633e+00,2.295050e-07
6.300632e+00,2.319470e-07
6.350633e+00,2.273440e-07
6.400633e+00,2.298810e-07
6.450633e+00,2.252770e-07
6.500632e+00,2.278140e-07
6.550633e+00,2.232110e-07
6.600632e+00,2.258410e-07
6.650633e+00,2.212380e-07
6.700633e+00,2.238680e-07
6.750633e+00,2.192650e-07
6.800632e+00,2.219890e-07
6.850632e+00,2.172920e-07
6.900632e+00,2.202040e-07
6.950632e+00,2.156010e-07
7.000632e+00,2.183260e-07
7.050633e+00,2.137220e-07
7.100632e+00,2.165410e-07
7.150633e+00,2.119370e-07
7.200633e+00,2.148500e-07
7.250633e+00,2.102460e-07
7.300633e+00,2.131590e-07
7.350633e+00,2.085550e-07
7.400635e+00,2.114680e-07
7.450633e+00,2.069580e-07
7.500632e+00,2.099650e-07
7.550633e+00,2.053610e-07
7.600632e+00,2.083670e-07
7.650633e+00,2.038580e-07
7.700633e+00,2.068640e-07
7.750632e+00,2.023550e-07
7.800632e+00,2.052670e-07
7.850632e+00,2.008520e-07
7.900632e+00,2.038580e-07
7.950633e+00,1.994430e-07
8.000633e+00,2.024490e-07
8.050633e+00,1.980340e-07
8.100633e+00,2.010400e-07
8.150633e+00,1.966240e-07
8.200632e+00,1.996310e-07
8.250632e+00,1.953090e-07
8.300636e+00,1.983150e-07
8.350633e+00,1.939940e-07
8.400632e+00,1.969060e-07
8.450633e+00,1.927730e-07
8.500634e+00,1.956850e-07
8.550632e+00,1.914580e-07
8.600632e+00,1.943700e-07
8.650632e+00,1.902360e-07
8.700633e+00,1.931490e-07
8.750633e+00,1.890150e-07
8.800632e+00,1.918330e-07
8.850634e+00,1.877940e-07
8.900633e+00,1.906120e-07
8.950633e+00,1.866660e-07
9.000633e+00,1.893910e-07
9.050633e+00,1.855390e-07
9.100632e+00,1.882630e-07
9.150632e+00,1.843180e-07
9.200633e+00,1.870420e-07
9.250635e+00,1.832840e-07
9.300633e+00,1.858210e-07
9.350632e+00,1.822510e-07
9.400632e+00,1.846000e-07
9.450633e+00,1.811240e-07
9.500633e+00,1.834720e-07
9.550632e+00,1.801840e-07
9.600632e+00,1.823450e-07
9.650633e+00,1.791510e-07
9.700633e+00,1.813120e-07
9.750633e+00,1.783050e-07
9.800633e+00,1.801840e-07
9.850633e+00,1.772720e-07
9.900633e+00,1.791510e-07
9.950633e+00,1.763330e-07
1.000063e+01,1.780240e-07
