# potential_V=0.4
time,current
5.064259e-02,9.290132e-06
1.006415e-01,6.351416e-06
1.510840e-01,5.119052e-06
2.006410e-01,3.936257e-06
2.506420e-01,3.475931e-06
3.010850e-01,3.147126e-06
3.506420e-01,2.870931e-06
4.006420e-01,2.669891e-06
4.506420e-01,2.497973e-06
5.006440e-01,2.361754e-06
5.506420e-01,2.237748e-06
6.006420e-01,2.139107e-06
6.506420e-01,2.043283e-06
7.006410e-01,1.966249e-06
7.506410e-01,1.891094e-06
8.006420e-01,1.830030e-06
8.506420e-01,1.768027e-06
9.006420e-01,1.718237e-06
9.506420e-01,1.664689e-06
1.000642e+00,1.622414e-06
1.050642e+00,1.577321e-06
1.100641e+00,1.541622e-06
1.150642e+00,1.505923e-06
1.200641e+00,1.474922e-06
1.250642e+00,1.442041e-06
1.300642e+00,1.416676e-06
1.350642e+00,1.385675e-06
1.400642e+00,1.363128e-06
1.450641e+00,1.336824e-06
1.500641e+00,1.317096e-06
1.550641e+00,1.291731e-06
1.600642e+00,1.273881e-06
1.650642e+00,1.250395e-06
1.700642e+00,1.235364e-06
1.750641e+00,1.214697e-06
1.800642e+00,1.198726e-06
1.851084e+00,1.180877e-06
1.900642e+00,1.162276e-06
1.950642e+00,1.144426e-06
2.000642e+00,1.132871e-06
2.050642e+00,1.115961e-06
2.100641e+00,1.105815e-06
2.150642e+00,1.090033e-06
2.200642e+00,1.080544e-06
2.250642e+00,1.065983e-06
2.300642e+00,1.057246e-06
2.350644e+00,1.043718e-06
2.400642e+00,1.035545e-06
2.450642e+00,1.022675e-06
2.500642e+00,1.014971e-06
2.550642e+00,1.003135e-06
2.600642e+00,9.960890e-07
2.650642e+00,9.845340e-07
2.700642e+00,9.779570e-07
2.750642e+00,9.671540e-07
2.800642e+00,9.610480e-07
2.850641e+00,9.509020e-07
2.900642e+00,9.447950e-07
2.950642e+00,9.352130e-07
3.000642e+00,9.297640e-07
3.050642e+00,9.207460e-07
3.100641e+00,9.155790e-07
3.150642e+00,9.068420e-07
3.200642e+00,9.017690e-07
3.250641e+00,8.935020e-07
3.300642e+00,8.888980e-07
3.350641e+00,8.807250e-07
3.400642e+00,8.764980e-07
3.450642e+00,8.689820e-07
3.500642e+00,8.646610e-07
3.550642e+00,8.573330e-07
3.600642e+00,8.536690e-07
3.650642e+00,8.466240e-07
3.700642e+00,8.427720e-07
3.750642e+00,8.361960e-07
3.800642e+00,8.322500e-07
3.850642e+00,8.261440e-07
3.900642e+00,8.225740e-07
3.950641e+00,8.165610e-07
4.000641e+00,8.130860e-07
4.050641e+00,8.070730e-07
4.100642e+00,8.037850e-07
4.150642e+00,7.983360e-07
4.200643e+00,7.951420e-07
4.250642e+00,7.894120e-07
4.300641e+00,7.867810e-07
4.350642e+00,7.815200e-07
4.400641e+00,7.784200e-07
4.450641e+00,7.733470e-07
4.500642e+00,7.709050e-07
4.550641e+00,7.658320e-07
4.600642e+00,7.632010e-07
4.650642e+00,7.581280e-07
4.700642e+00,7.556860e-07
4.750641e+00,7.510820e-07
4.800642e+00,7.486400e-07
4.850641e+00,7.442250e-07
4.900642e+00,7.417820e-07
4.950642e+00,7.376490e-07
5.000642e+00,7.346420e-07
5.050642e+00,7.312600e-07
5.100644e+00,7.286300e-07
5.150642e+00,7.246840e-07
5.200642e+00,7.226170e-07
5.250641e+00,7.187660e-07
5.300641e+00,7.166050e-07
5.350642e+00,7.127530e-07
5.400642e+00,7.104990e-07
5.450642e+00,7.070230e-07
5.500641e+00,7.048620e-07
5.550642e+00,7.011980e-07
5.600642e+00,6.991310e-07
5.650642e+00,6.957490e-07
5.700642e+00,6.941520e-07
5.750642e+00,6.907700e-07
5.800642e+00,6.887040e-07
5.850642e+00,6.853220e-07
5.900641e+00,6.834430e-07
5.950642e+00,6.803430e-07
6.000642e+00,6.784640e-07
6.050641e+00,6.756450e-07
6.100642e+00,6.740480e-07
6.150641e+00,6.709480e-07
6.200641e+00,6.689750e-07
6.250642e+00,6.663450e-07
6.300641e+00,6.646540e-07
6.350642e+00,6.618360e-07
6.400642e+00,6.604260e-07
6.450642e+00,6.575140e-07
6.500642e+00,6.555410e-07
6.550642e+00,6.529110e-07
6.600641e+00,6.513140e-07
6.650641e+00,6.486830e-07
6.700642e+00,6.473680e-07
6.750642e+00,6.446440e-07
6.800642e+00,6.431410e-07
6.850642e+00,6.408860e-07
6.900641e+00,6.391010e-07
6.950644e+00,6.369400e-07
7.000642e+00,6.353430e-07
7.050642e+00,6.331830e-07
7.100642e+00,6.315860e-07
7.150641e+00,6.294250e-07
7.200642e+00,6.279220e-07
7.250642e+00,6.257610e-07
7.300641e+00,6.244460e-07
7.350642e+00,6.221910e-07
7.400641e+00,6.208760e-07
7.450642e+00,6.188090e-07
7.500642e+00,6.171180e-07
7.550642e+00,6.155210e-07
7.600641e+00,6.139240e-07
7.650642e+00,6.118570e-07
7.700640e+00,6.104480e-07
7.750642e+00,6.086630e-07
7.800642e+00,6.073480e-07
7.850641e+00,6.057510e-07
7.900641e+00,6.039660e-07
7.950642e+00,6.022750e-07
8.000642e+00,6.007720e-07
8.050641e+00,5.991750e-07
8.100641e+00,5.977660e-07
8.150642e+00,5.961690e-07
8.200642e+00,5.946660e-07
8.250642e+00,5.930690e-07
8.300642e+00,5.916590e-07
8.350640e+00,5.903440e-07
8.400642e+00,5.887470e-07
8.450641e+00,5.874320e-07
8.500641e+00,5.861170e-07
8.550642e+00,5.847080e-07
8.600641e+00,5.830170e-07
8.650642e+00,5.817950e-07
8.700642e+00,5.805740e-07
8.750642e+00,5.792590e-07
8.800642e+00,5.780380e-07
8.850641e+00,5.765340e-07
8.900642e+00,5.754070e-07
8.950642e+00,5.740920e-07
9.000642e+00,5.724010e-07
9.050642e+00,5.718370e-07
9.100642e+00,5.699580e-07
9.150642e+00,5.689250e-07
9.200641e+00,5.677040e-07
9.250642e+00,5.664820e-07
9.300641e+00,5.653550e-07
9.350642e+00,5.643220e-07
9.400641e+00,5.628190e-07
9.450642e+00,5.619730e-07
9.500642e+00,5.603760e-07
9.550641e+00,5.598120e-07
9.600642e+00,5.581210e-07
9.650642e+00,5.570880e-07
9.700643e+00,5.559610e-07
9.750642e+00,5.549270e-07
9.800641e+00,5.533300e-07
9.850642e+00,5.522970e-07
9.900642e+00,5.512630e-07
9.950642e+00,5.505120e-07
1.000064e+01,5.490090e-07
1.005064e+01,5.483510e-07
1.010064e+01,5.469420e-07
1.015064e+01,5.460030e-07
1.020064e+01,5.446870e-07
1.025064e+01,5.440300e-07
1.030064e+01,5.425270e-07
1.035064e+01,5.420570e-07
1.040064e+01,5.404600e-07
1.045064e+01,5.399900e-07
1.050064e+01,5.383930e-07
1.055064e+01,5.380170e-07
1.060064e+01,5.366080e-07
1.065064e+01,5.363260e-07
1.070064e+01,5.344470e-07
1.075064e+01,5.342600e-07
1.080064e+01,5.324750e-07
1.085064e+01,5.323810e-07
1.090064e+01,5.306900e-07
1.095064e+01,5.305960e-07
1.100064e+01,5.287170e-07
1.105064e+01,5.286230e-07
1.110064e+01,5.267440e-07
1.115064e+01,5.270260e-07
1.120064e+01,5.248650e-07
1.125064e+01,5.255230e-07
1.130064e+01,5.233620e-07
1.135064e+01,5.235500e-07
1.140064e+01,5.212950e-07
1.145064e+01,5.217650e-07
1.150064e+01,5.197920e-07
1.155064e+01,5.201680e-07
1.160064e+01,5.178190e-07
1.165064e+01,5.184770e-07
1.170064e+01,5.160340e-07
1.175064e+01,5.164100e-07
1.180064e+01,5.146250e-07
1.185064e+01,5.149070e-07
1.190064e+01,5.127460e-07
1.195064e+01,5.134040e-07
1.200064e+01,5.111490e-07
1.205064e+01,5.119010e-07
1.210064e+01,5.095520e-07
1.215064e+01,5.105860e-07
1.220064e+01,5.077670e-07
1.225064e+01,5.089890e-07
1.230064e+01,5.062640e-07
1.235064e+01,5.073920e-07
1.240064e+01,5.045730e-07
1.245064e+01,5.058880e-07
1.250064e+01,5.030700e-07
1.255064e+01,5.042910e-07
1.260064e+01,5.016610e-07
1.265064e+01,5.027880e-07
1.270064e+01,4.999700e-07
1.275064e+01,5.013790e-07
1.280064e+01,4.983730e-07
1.285064e+01,4.999700e-07
1.290064e+01,4.966820e-07
1.295064e+01,4.981850e-07
1.300064e+01,4.951790e-07
1.305064e+01,4.973400e-07
1.310064e+01,4.939580e-07
1.315064e+01,4.959300e-07
1.320064e+01,4.926420e-07
1.325064e+01,4.943330e-07
1.330064e+01,4.912330e-07
1.335064e+01,4.929240e-07
1.340064e+01,4.898240e-07
1.345064e+01,4.919850e-07
1.350064e+01,4.883210e-07
1.355064e+01,4.902000e-07
1.360064e+01,4.869120e-07
1.365064e+01,4.890720e-07
1.370064e+01,4.856900e-07
1.375064e+01,4.881330e-07
1.380064e+01,4.845630e-07
1.385064e+01,4.870060e-07
1.390064e+01,4.831540e-07
1.395064e+01,4.854090e-07
1.400064e+01,4.820270e-07
1.405064e+01,4.839990e-07
1.410064e+01,4.808990e-07
1.415064e+01,4.829660e-07
1.420064e+01,4.793960e-07
1.425064e+01,4.816510e-07
1.430064e+01,4.783630e-07
1.435064e+01,4.808050e-07
1.440064e+01,4.770480e-07
1.445064e+01,4.795840e-07
1.450064e+01,4.760140e-07
1.455064e+01,4.778930e-07
1.460064e+01,4.746990e-07
1.465064e+01,4.769540e-07
1.470064e+01,4.733840e-07
1.475064e+01,4.759200e-07
1.480064e+01,4.721620e-07
1.485064e+01,4.747930e-07
1.490064e+01,4.712230e-07
1.495064e+01,4.731960e-07
1.500064e+01,4.700960e-07
1.505064e+01,4.725380e-07
1.510064e+01,4.689680e-07
1.515064e+01,4.713170e-07
1.520064e+01,4.678410e-07
1.525064e+01,4.701900e-07
1.530064e+01,4.668080e-07
1.535064e+01,4.690620e-07
1.540064e+01,4.654920e-07
1.545064e+01,4.681230e-07
1.550064e+01,4.644590e-07
1.555064e+01,4.672770e-07
1.560064e+01,4.636140e-07
1.565064e+01,4.660560e-07
1.570064e+01,4.625800e-07
1.575064e+01,4.648350e-07
1.580064e+01,4.614530e-07
1.585064e+01,4.638010e-07
1.590064e+01,4.604190e-07
1.595064e+01,4.629560e-07
1.600064e+01,4.592920e-07
1.605064e+01,4.618290e-07
1.610064e+01,4.585410e-07
1.615064e+01,4.609830e-07
1.620064e+01,4.571310e-07
1.625064e+01,4.598560e-07
1.630064e+01,4.563800e-07
1.635064e+01,4.588220e-07
1.640064e+01,4.553470e-07
1.645064e+01,4.580710e-07
1.650064e+01,4.545010e-07
1.655064e+01,4.571310e-07
1.660064e+01,4.532800e-07
1.665064e+01,4.562860e-07
1.670064e+01,4.521520e-07
1.675064e+01,4.554400e-07
1.680064e+01,4.514010e-07
1.685064e+01,4.544070e-07
1.690064e+01,4.505550e-07
1.695064e+01,4.535620e-07
1.700064e+01,4.496160e-07
1.705064e+01,4.525280e-07
1.710064e+01,4.485830e-07
1.715064e+01,4.516830e-07
1.720064e+01,4.479250e-07
1.725064e+01,4.508370e-07
1.730064e+01,4.467980e-07
1.735064e+01,4.499920e-07
1.740064e+01,4.457640e-07
1.745064e+01,4.491460e-07
1.750064e+01,4.448250e-07
1.755064e+01,4.482070e-07
1.760064e+01,4.439790e-07
1.765064e+01,4.475490e-07
1.770064e+01,4.434160e-07
1.775064e+01,4.465160e-07
1.780064e+01,4.424760e-07
1.785064e+01,4.454820e-07
1.790064e+01,4.414430e-07
1.795064e+01,4.447310e-07
1.800064e+01,4.405970e-07
1.805064e+01,4.438850e-07
1.810064e+01,4.398460e-07
1.815064e+01,4.433220e-07
1.820064e+01,4.389060e-07
1.825064e+01,4.424760e-07
1.830064e+01,4.379670e-07
1.835064e+01,4.418190e-07
1.840064e+01,4.373090e-07
1.845064e+01,4.409730e-07
1.850064e+01,4.369330e-07
1.855064e+01,4.400340e-07
1.860064e+01,4.358060e-07
1.865064e+01,4.391880e-07
1.870064e+01,4.350550e-07
1.875064e+01,4.386240e-07
1.880064e+01,4.340210e-07
1.885064e+01,4.376850e-07
1.890064e+01,4.335510e-07
1.895064e+01,4.373090e-07
1.900064e+01,4.328000e-07
1.905064e+01,4.364640e-07
1.910064e+01,4.321420e-07
1.915064e+01,4.354300e-07
1.920064e+01,4.312030e-07
1.925064e+01,4.347730e-07
1.930064e+01,4.307330e-07
1.935064e+01,4.341150e-07
1.940064e+01,4.295120e-07
1.945064e+01,4.334580e-07
1.950064e+01,4.290420e-07
1.955064e+01,4.327060e-07
1.960064e+01,4.283850e-07
1.965064e+01,4.319540e-07
1.970064e+01,4.273510e-07
1.975064e+01,4.315790e-07
1.980064e+01,4.268810e-07
1.985064e+01,4.304510e-07
1.990064e+01,4.260360e-07
1.995064e+01,4.297000e-07
2.000064e+01,4.253780e-07
2.005064e+01,4.292300e-07
2.010064e+01,4.244390e-07
2.015064e+01,4.286660e-07
2.020064e+01,4.240630e-07
2.025064e+01,4.281030e-07
2.030064e+01,4.232180e-07
2.035064e+01,4.272570e-07
2.040064e+01,4.228420e-07
2.045064e+01,4.266940e-07
2.050064e+01,4.218080e-07
2.055064e+01,4.258480e-07
2.060064e+01,4.212450e-07
2.065064e+01,4.256600e-07
2.070064e+01,4.209630e-07
2.075064e+01,4.248150e-07
2.080064e+01,4.199300e-07
2.085064e+01,4.240630e-07
2.090064e+01,4.191780e-07
2.095064e+01,4.234990e-07
2.100064e+01,4.186140e-07
2.105064e+01,4.230300e-07
2.110064e+01,4.179570e-07
2.115064e+01,4.222780e-07
2.120064e+01,4.176750e-07
2.125064e+01,4.214330e-07
2.130064e+01,4.167350e-07
2.135064e+01,4.209630e-07
2.140064e+01,4.159840e-07
2.145064e+01,4.202110e-07
2.150064e+01,4.155140e-07
2.155064e+01,4.198360e-07
2.160064e+01,4.148570e-07
2.165064e+01,4.191780e-07
2.170064e+01,4.139170e-07
2.175064e+01,4.187080e-07
2.180064e+01,4.139170e-07
2.185064e+01,4.178630e-07
2.190064e+01,4.132600e-07
2.195064e+01,4.172050e-07
2.200064e+01,4.128840e-07
2.205064e+01,4.170170e-07
2.210064e+01,4.120380e-07
2.215064e+01,4.163600e-07
2.220064e+01,4.112870e-07
2.225064e+01,4.158900e-07
2.230064e+01,4.107230e-07
2.235064e+01,4.153260e-07
2.240064e+01,4.102530e-07
2.245064e+01,4.145750e-07
2.250064e+01,4.094080e-07
2.255064e+01,4.141990e-07
2.260064e+01,4.089380e-07
2.265064e+01,4.135410e-07
2.270064e+01,4.086560e-07
2.275064e+01,4.131660e-07
2.280064e+01,4.078110e-07
2.285064e+01,4.125080e-07
2.290064e+01,4.072470e-07
2.295064e+01,4.119440e-07
2.300064e+01,4.066830e-07
2.305064e+01,4.111930e-07
2.310064e+01,4.063080e-07
2.315064e+01,4.110050e-07
2.320064e+01,4.056500e-07
2.325064e+01,4.099720e-07
2.330064e+01,4.050860e-07
2.335064e+01,4.097840e-07
2.340064e+01,4.048050e-07
2.345064e+01,4.092200e-07
2.350064e+01,4.043350e-07
2.355064e+01,4.085620e-07
2.360064e+01,4.038650e-07
2.365064e+01,4.080930e-07
2.370064e+01,4.032080e-07
2.375064e+01,4.073410e-07
2.380064e+01,4.023620e-07
2.385064e+01,4.070590e-07
2.390064e+01,4.020800e-07
2.395064e+01,4.066830e-07
2.400064e+01,4.017040e-07
2.405064e+01,4.060260e-07
2.410064e+01,4.014230e-07
2.415064e+01,4.055560e-07
2.420064e+01,4.008590e-07
2.425064e+01,4.052740e-07
2.430064e+01,4.000130e-07
2.435064e+01,4.047110e-07
2.440064e+01,4.000130e-07
2.445064e+01,4.040530e-07
2.450064e+01,3.995440e-07
2.455064e+01,4.038650e-07
2.460064e+01,3.986980e-07
2.465064e+01,4.031140e-07
2.470064e+01,3.983220e-07
2.475064e+01,4.027380e-07
2.480064e+01,3.979470e-07
2.485064e+01,4.019860e-07
2.490064e+01,3.974770e-07
2.495064e+01,4.014230e-07
2.500064e+01,3.970070e-07
2.505064e+01,4.011410e-07
2.510064e+01,3.964440e-07
2.515064e+01,4.007650e-07
2.520064e+01,3.961620e-07
2.525064e+01,4.002950e-07
2.530064e+01,3.955980e-07
2.535064e+01,3.999190e-07
2.540064e+01,3.951280e-07
2.545064e+01,3.990740e-07
2.550064e+01,3.945650e-07
2.555064e+01,3.987920e-07
2.560064e+01,3.940010e-07
2.565064e+01,3.985100e-07
2.570064e+01,3.940010e-07
2.575064e+01,3.977590e-07
2.580064e+01,3.937190e-07
2.585064e+01,3.974770e-07
2.590064e+01,3.929680e-07
2.595064e+01,3.971010e-07
2.600064e+01,3.924980e-07
2.605064e+01,3.965380e-07
2.610064e+01,3.924980e-07
2.615064e+01,3.959740e-07
2.620064e+01,3.916520e-07
2.625064e+01,3.955040e-07
2.630064e+01,3.914650e-07
2.635064e+01,3.952220e-07
2.640064e+01,3.909950e-07
2.645064e+01,3.945650e-07
2.650064e+01,3.907130e-07
2.655064e+01,3.952220e-07
2.660064e+01,3.902430e-07
2.665064e+01,3.934370e-07
2.670064e+01,3.896800e-07
2.675064e+01,3.936250e-07
2.680064e+01,3.894920e-07
2.685064e+01,3.928740e-07
2.690064e+01,3.890220e-07
2.695064e+01,3.925920e-07
2.700064e+01,3.883640e-07
2.705064e+01,3.923100e-07
2.710064e+01,3.882700e-07
2.715064e+01,3.922160e-07
2.720064e+01,3.873310e-07
2.725064e+01,3.917460e-07
2.730064e+01,3.874250e-07
2.735064e+01,3.909950e-07
2.740064e+01,3.871430e-07
2.745064e+01,3.904310e-07
2.750064e+01,3.866730e-07
2.755064e+01,3.902430e-07
2.760064e+01,3.862040e-07
2.765064e+01,3.895860e-07
2.770064e+01,3.856400e-07
2.775064e+01,3.895860e-07
2.780064e+01,3.855460e-07
2.785064e+01,3.890220e-07
2.790064e+01,3.850760e-07
2.795064e+01,3.888340e-07
2.800064e+01,3.846070e-07
2.805064e+01,3.882700e-07
2.810064e+01,3.845130e-07
2.815064e+01,3.884580e-07
2.820064e+01,3.838550e-07
2.825064e+01,3.878010e-07
2.830064e+01,3.834790e-07
2.835064e+01,3.878010e-07
2.840064e+01,3.833850e-07
2.845064e+01,3.870490e-07
2.850064e+01,3.826340e-07
2.855064e+01,3.867670e-07
2.860064e+01,3.823520e-07
2.865064e+01,3.862980e-07
2.870064e+01,3.818820e-07
2.875064e+01,3.860160e-07
2.880064e+01,3.817880e-07
2.885064e+01,3.857340e-07
2.890064e+01,3.816000e-07
2.895064e+01,3.853580e-07
2.900064e+01,3.809430e-07
2.905064e+01,3.850760e-07
2.910064e+01,3.801910e-07
2.915064e+01,3.843250e-07
2.920064e+01,3.801910e-07
2.925064e+01,3.840430e-07
2.930064e+01,3.801910e-07
2.935064e+01,3.840430e-07
2.940064e+01,3.797220e-07
2.945064e+01,3.833850e-07
2.950064e+01,3.796280e-07
2.955064e+01,3.833850e-07
2.960064e+01,3.792520e-07
2.965064e+01,3.822580e-07
2.970064e+01,3.786880e-07
2.975064e+01,3.824460e-07
2.980064e+01,3.784060e-07
2.985064e+01,3.820700e-07
2.990064e+01,3.784060e-07
2.995064e+01,3.817880e-07
3.000064e+01,3.776550e-07
3.005064e+01,3.815060e-07
3.010064e+01,3.773730e-07
3.015064e+01,3.817880e-07
3.020064e+01,3.766210e-07
3.025064e+01,3.806610e-07
3.030064e+01,3.767150e-07
3.035064e+01,3.806610e-07
3.040064e+01,3.766210e-07
3.045064e+01,3.802850e-07
3.050064e+01,3.762460e-07
3.055064e+01,3.798150e-07
3.060064e+01,3.758700e-07
3.065064e+01,3.793460e-07
3.070064e+01,3.754940e-07
3.075064e+01,3.789700e-07
3.080064e+01,3.754000e-07
3.085064e+01,3.786880e-07
3.090064e+01,3.748360e-07
3.095064e+01,3.785940e-07
3.100064e+01,3.748360e-07
3.105064e+01,3.783120e-07
3.110064e+01,3.743670e-07
3.115064e+01,3.780310e-07
3.120064e+01,3.741790e-07
3.125064e+01,3.776550e-07
3.130064e+01,3.737090e-07
3.135064e+01,3.773730e-07
3.140064e+01,3.734270e-07
3.145064e+01,3.770910e-07
3.150064e+01,3.730510e-07
3.155064e+01,3.766210e-07
3.160064e+01,3.727700e-07
3.165064e+01,3.766210e-07
3.170064e+01,3.724880e-07
3.175064e+01,3.758700e-07
3.180064e+01,3.723940e-07
3.185064e+01,3.754000e-07
3.190064e+01,3.720180e-07
3.195064e+01,3.754000e-07
3.200064e+01,3.719240e-07
3.205064e+01,3.749300e-07
3.210064e+01,3.713600e-07
3.215064e+01,3.747420e-07
3.220064e+01,3.714540e-07
3.225064e+01,3.743670e-07
3.230064e+01,3.707970e-07
3.235064e+01,3.742730e-07
3.240064e+01,3.705150e-07
3.245064e+01,3.739910e-07
3.250064e+01,3.705150e-07
3.255064e+01,3.732390e-07
3.260064e+01,3.701390e-07
3.265064e+01,3.724880e-07
3.270064e+01,3.700450e-07
3.275064e+01,3.729580e-07
3.280064e+01,3.695760e-07
3.285064e+01,3.723940e-07
3.290064e+01,3.697630e-07
3.295064e+01,3.723000e-07
3.300064e+01,3.695760e-07
3.305064e+01,3.720180e-07
3.310064e+01,3.690120e-07
3.315064e+01,3.713600e-07
3.320064e+01,3.692000e-07
3.325064e+01,3.709850e-07
3.330064e+01,3.689180e-07
3.335064e+01,3.708910e-07
3.340064e+01,3.683540e-07
3.345064e+01,3.707030e-07
3.350064e+01,3.684480e-07
3.355064e+01,3.704210e-07
3.360064e+01,3.683540e-07
3.365064e+01,3.698570e-07
3.370064e+01,3.679780e-07
3.375064e+01,3.699510e-07
3.380064e+01,3.676970e-07
3.385064e+01,3.692940e-07
3.390064e+01,3.679780e-07
3.395064e+01,3.690120e-07
3.400064e+01,3.672270e-07
3.405064e+01,3.688240e-07
3.410064e+01,3.672270e-07
3.415064e+01,3.684480e-07
3.420064e+01,3.669450e-07
3.425064e+01,3.678850e-07
3.430064e+01,3.666630e-07
3.435064e+01,3.689180e-07
3.440064e+01,3.664750e-07
3.445064e+01,3.676030e-07
3.450064e+01,3.661940e-07
3.455064e+01,3.672270e-07
3.460064e+01,3.661940e-07
3.465064e+01,3.669450e-07
3.470064e+01,3.661000e-07
3.475064e+01,3.665690e-07
3.480064e+01,3.658180e-07
3.485064e+01,3.662880e-07
3.490064e+01,3.652540e-07
3.495064e+01,3.662880e-07
3.500064e+01,3.652540e-07
3.505064e+01,3.658180e-07
3.510064e+01,3.650660e-07
3.515064e+01,3.655360e-07
3.520064e+01,3.651600e-07
3.525064e+01,3.654420e-07
3.530064e+01,3.645030e-07
3.535064e+01,3.649720e-07
3.540064e+01,3.642210e-07
3.545064e+01,3.647840e-07
3.550064e+01,3.642210e-07
3.555064e+01,3.645970e-07
3.560064e+01,3.639390e-07
3.565064e+01,3.643150e-07
3.570064e+01,3.637510e-07
3.575064e+01,3.641270e-07
3.580064e+01,3.636570e-07
3.585064e+01,3.639390e-07
3.590064e+01,3.633750e-07
3.595064e+01,3.635630e-07
3.600064e+01,3.632810e-07
3.605064e+01,3.631870e-07
3.610064e+01,3.629990e-07
3.615064e+01,3.629060e-07
3.620064e+01,3.627180e-07
3.625064e+01,3.627180e-07
3.630064e+01,3.624360e-07
3.635064e+01,3.626240e-07
3.640064e+01,3.623420e-07
3.645064e+01,3.623420e-07
3.650064e+01,3.620600e-07
3.655064e+01,3.620600e-07
3.660064e+01,3.621540e-07
3.665064e+01,3.618720e-07
3.670064e+01,3.616840e-07
3.675064e+01,3.614960e-07
3.680064e+01,3.612150e-07
3.685064e+01,3.613080e-07
3.690064e+01,3.611210e-07
3.695064e+01,3.612150e-07
3.700064e+01,3.611210e-07
3.705064e+01,3.607450e-07
3.710064e+01,3.607450e-07
3.715064e+01,3.605570e-07
3.720064e+01,3.606510e-07
3.725064e+01,3.604630e-07
3.730064e+01,3.603690e-07
3.735064e+01,3.602750e-07
3.740064e+01,3.600870e-07
3.745064e+01,3.600870e-07
3.750064e+01,3.600870e-07
3.755064e+01,3.599930e-07
3.760064e+01,3.598990e-07
3.765064e+01,3.595240e-07
3.770064e+01,3.596170e-07
3.775064e+01,3.592420e-07
3.780064e+01,3.596170e-07
3.785064e+01,3.589600e-07
3.790064e+01,3.593360e-07
3.795064e+01,3.589600e-07
3.800064e+01,3.592420e-07
3.805064e+01,3.585840e-07
3.810064e+01,3.588660e-07
3.815064e+01,3.583960e-07
3.820064e+01,3.589600e-07
3.825064e+01,3.582080e-07
3.830064e+01,3.588660e-07
3.835064e+01,3.575510e-07
3.840064e+01,3.583960e-07
