# potential_V=0.4
time,current
5.063573e-02,1.004851e-05
1.006361e-01,6.920200e-06
1.510790e-01,5.687836e-06
2.006360e-01,4.133539e-06
2.506350e-01,3.654425e-06
3.010790e-01,3.297437e-06
3.506360e-01,3.022181e-06
4.006360e-01,2.804231e-06
4.506360e-01,2.631373e-06
5.006360e-01,2.479184e-06
5.506360e-01,2.354238e-06
6.006360e-01,2.242445e-06
6.506360e-01,2.149440e-06
7.006360e-01,2.060193e-06
7.506350e-01,1.989735e-06
8.006360e-01,1.917398e-06
8.506350e-01,1.858214e-06
9.006380e-01,1.799029e-06
9.506360e-01,1.749238e-06
1.000635e+00,1.698509e-06
1.050636e+00,1.659992e-06
1.100636e+00,1.615838e-06
1.150636e+00,1.579200e-06
1.200636e+00,1.541622e-06
1.250635e+00,1.513439e-06
1.300636e+00,1.476801e-06
1.350636e+00,1.450496e-06
1.400635e+00,1.423253e-06
1.450636e+00,1.398827e-06
1.500636e+00,1.373462e-06
1.550635e+00,1.351855e-06
1.600636e+00,1.329308e-06
1.650636e+00,1.307701e-06
1.700636e+00,1.287973e-06
1.750636e+00,1.270124e-06
1.800637e+00,1.254153e-06
1.850636e+00,1.235364e-06
1.900636e+00,1.217515e-06
1.950635e+00,1.200605e-06
2.001079e+00,1.186513e-06
2.050635e+00,1.164812e-06
2.100636e+00,1.151472e-06
2.150635e+00,1.137850e-06
2.200636e+00,1.124698e-06
2.250636e+00,1.112016e-06
2.300636e+00,1.100179e-06
2.350635e+00,1.087966e-06
2.400636e+00,1.077162e-06
2.450636e+00,1.065795e-06
2.500636e+00,1.055837e-06
2.550635e+00,1.044940e-06
2.600636e+00,1.035921e-06
2.650636e+00,1.025117e-06
2.700637e+00,1.017038e-06
2.750637e+00,1.006704e-06
2.800636e+00,9.990010e-07
2.850636e+00,9.895130e-07
2.900637e+00,9.824670e-07
2.950637e+00,9.733540e-07
3.000636e+00,9.665900e-07
3.050635e+00,9.574780e-07
3.100635e+00,9.516530e-07
3.150636e+00,9.422590e-07
3.200636e+00,9.373740e-07
3.250635e+00,9.279790e-07
3.300635e+00,9.240340e-07
3.350635e+00,9.141690e-07
3.400635e+00,9.115390e-07
3.450636e+00,9.015810e-07
3.500635e+00,8.993260e-07
3.550636e+00,8.892740e-07
3.600635e+00,8.873950e-07
3.650638e+00,8.774370e-07
3.700635e+00,8.761220e-07
3.750636e+00,8.663520e-07
3.800635e+00,8.657880e-07
3.850636e+00,8.556420e-07
3.900637e+00,8.546090e-07
3.950635e+00,8.449330e-07
4.000636e+00,8.448390e-07
4.050635e+00,8.357260e-07
4.100636e+00,8.353500e-07
4.150636e+00,8.260500e-07
4.200635e+00,8.259560e-07
4.250636e+00,8.172190e-07
4.300636e+00,8.172190e-07
4.350635e+00,8.083880e-07
4.400636e+00,8.082940e-07
4.450635e+00,8.000270e-07
4.500636e+00,8.002150e-07
4.550636e+00,7.918540e-07
4.600636e+00,7.919480e-07
4.650636e+00,7.841510e-07
4.700636e+00,7.845270e-07
4.750635e+00,7.758840e-07
4.800636e+00,7.768230e-07
4.850636e+00,7.689320e-07
4.900636e+00,7.703410e-07
4.950636e+00,7.617920e-07
5.000636e+00,7.632950e-07
5.050637e+00,7.548400e-07
5.100636e+00,7.566250e-07
5.150635e+00,7.478880e-07
5.200635e+00,7.501430e-07
5.250636e+00,7.414060e-07
5.300635e+00,7.438490e-07
5.350635e+00,7.352060e-07
5.400637e+00,7.375550e-07
5.450636e+00,7.290060e-07
5.500638e+00,7.314480e-07
5.550636e+00,7.231810e-07
5.600635e+00,7.256240e-07
5.650637e+00,7.172630e-07
5.700635e+00,7.199870e-07
5.750636e+00,7.116260e-07
5.800635e+00,7.146320e-07
5.850635e+00,7.065530e-07
5.900636e+00,7.089960e-07
5.950635e+00,7.011980e-07
6.000636e+00,7.034530e-07
6.050636e+00,6.961250e-07
6.100635e+00,6.985680e-07
6.150636e+00,6.912400e-07
6.200636e+00,6.934950e-07
6.250636e+00,6.862610e-07
6.300635e+00,6.885160e-07
6.350636e+00,6.817520e-07
6.400638e+00,6.836310e-07
6.450635e+00,6.774300e-07
6.500636e+00,6.791210e-07
6.550636e+00,6.730150e-07
6.600635e+00,6.746120e-07
6.650636e+00,6.688810e-07
6.700636e+00,6.701970e-07
6.750635e+00,6.641840e-07
6.800637e+00,6.657810e-07
6.850635e+00,6.602390e-07
6.900635e+00,6.617420e-07
6.950635e+00,6.560110e-07
7.000635e+00,6.574200e-07
7.050636e+00,6.518780e-07
7.100636e+00,6.534750e-07
7.150635e+00,6.480260e-07
7.200635e+00,6.497170e-07
7.250636e+00,6.439860e-07
7.300635e+00,6.452070e-07
7.350637e+00,6.405100e-07
7.400636e+00,6.419190e-07
7.450635e+00,6.367530e-07
7.500635e+00,6.379740e-07
7.550636e+00,6.330890e-07
7.600636e+00,6.344980e-07
7.650636e+00,6.297070e-07
7.700635e+00,6.306460e-07
7.750635e+00,6.263250e-07
7.800636e+00,6.273580e-07
7.850635e+00,6.233190e-07
7.900636e+00,6.233190e-07
7.950635e+00,6.201240e-07
8.000636e+00,6.202180e-07
8.050636e+00,6.174000e-07
8.100636e+00,6.166490e-07
8.150635e+00,6.143000e-07
8.200636e+00,6.135480e-07
8.250637e+00,6.118570e-07
8.300636e+00,6.104480e-07
8.350636e+00,6.081940e-07
8.400636e+00,6.070660e-07
8.450636e+00,6.052810e-07
8.500636e+00,6.039660e-07
8.550637e+00,6.025570e-07
8.600636e+00,6.010540e-07
8.650635e+00,5.999260e-07
8.700636e+00,5.981420e-07
8.750636e+00,5.963570e-07
8.800635e+00,5.951350e-07
8.850636e+00,5.939140e-07
8.900636e+00,5.923170e-07
8.950636e+00,5.914710e-07
9.000636e+00,5.892170e-07
9.050637e+00,5.885590e-07
9.100637e+00,5.867740e-07
9.150636e+00,5.861170e-07
9.200635e+00,5.840500e-07
9.250636e+00,5.835800e-07
9.300637e+00,5.813260e-07
9.350636e+00,5.811380e-07
9.400635e+00,5.785070e-07
9.450635e+00,5.787890e-07
9.500636e+00,5.764400e-07
9.550637e+00,5.766280e-07
9.600635e+00,5.735280e-07
9.650636e+00,5.742800e-07
9.700636e+00,5.709920e-07
9.750635e+00,5.720250e-07
9.800636e+00,5.680790e-07
9.850635e+00,5.699580e-07
9.900636e+00,5.656370e-07
9.950636e+00,5.678920e-07
1.000063e+01,5.633820e-07
1.005063e+01,5.656370e-07
1.010064e+01,5.607520e-07
1.015064e+01,5.634760e-07
1.020064e+01,5.582150e-07
1.025064e+01,5.613150e-07
1.030064e+01,5.559610e-07
1.035064e+01,5.593430e-07
1.040063e+01,5.541760e-07
1.045064e+01,5.571820e-07
1.050064e+01,5.516390e-07
1.055063e+01,5.550210e-07
1.060064e+01,5.497600e-07
1.065063e+01,5.527670e-07
1.070064e+01,5.475060e-07
1.075064e+01,5.510760e-07
1.080064e+01,5.457210e-07
1.085064e+01,5.488210e-07
1.090064e+01,5.433720e-07
1.095064e+01,5.467540e-07
1.100063e+01,5.417750e-07
1.105064e+01,5.444060e-07
1.110064e+01,5.394260e-07
1.115064e+01,5.430900e-07
1.120064e+01,5.378290e-07
1.125063e+01,5.409300e-07
1.130064e+01,5.360440e-07
1.135063e+01,5.395200e-07
1.140064e+01,5.336960e-07
1.145064e+01,5.375480e-07
1.150063e+01,5.319110e-07
1.155064e+01,5.359510e-07
1.160064e+01,5.296560e-07
1.165063e+01,5.344470e-07
1.170064e+01,5.282470e-07
1.175063e+01,5.327560e-07
1.180064e+01,5.264620e-07
1.185064e+01,5.310650e-07
1.190064e+01,5.244890e-07
1.195064e+01,5.291870e-07
1.200064e+01,5.227980e-07
1.205064e+01,5.274960e-07
1.210064e+01,5.215770e-07
1.215063e+01,5.254290e-07
1.220064e+01,5.196040e-07
1.225064e+01,5.238320e-07
1.230064e+01,5.178190e-07
1.235063e+01,5.224230e-07
1.240063e+01,5.166920e-07
1.245064e+01,5.205440e-07
1.250063e+01,5.149070e-07
1.255064e+01,5.186650e-07
1.260063e+01,5.133100e-07
1.265063e+01,5.170680e-07
1.270064e+01,5.121830e-07
1.275063e+01,5.154710e-07
1.280064e+01,5.104920e-07
1.285064e+01,5.135920e-07
1.290063e+01,5.092700e-07
1.295064e+01,5.124650e-07
1.300064e+01,5.077670e-07
1.305064e+01,5.103980e-07
1.310064e+01,5.064520e-07
1.315063e+01,5.090830e-07
1.320064e+01,5.052310e-07
1.325064e+01,5.072980e-07
1.330064e+01,5.033520e-07
1.335064e+01,5.061700e-07
1.340064e+01,5.022250e-07
1.345064e+01,5.045730e-07
1.350064e+01,5.006280e-07
1.355064e+01,5.031640e-07
1.360063e+01,4.991240e-07
1.365064e+01,5.017550e-07
1.370064e+01,4.979030e-07
1.375063e+01,4.998760e-07
1.380063e+01,4.973400e-07
1.385064e+01,4.984670e-07
1.390063e+01,4.956490e-07
1.395064e+01,4.965880e-07
1.400063e+01,4.948970e-07
1.405064e+01,4.951790e-07
1.410063e+01,4.940510e-07
1.415064e+01,4.935820e-07
1.420064e+01,4.927360e-07
1.425063e+01,4.918910e-07
1.430063e+01,4.915150e-07
1.435063e+01,4.912330e-07
1.440064e+01,4.901060e-07
1.445064e+01,4.894480e-07
1.450063e+01,4.890720e-07
1.455063e+01,4.882270e-07
1.460064e+01,4.876630e-07
1.465063e+01,4.871000e-07
1.470064e+01,4.868180e-07
1.475064e+01,4.857840e-07
1.480063e+01,4.855970e-07
1.485064e+01,4.842810e-07
1.490063e+01,4.845630e-07
1.495064e+01,4.831540e-07
1.500064e+01,4.833420e-07
1.505063e+01,4.815570e-07
1.510063e+01,4.823080e-07
1.515064e+01,4.803360e-07
1.520064e+01,4.818390e-07
1.525064e+01,4.790200e-07
1.530064e+01,4.810870e-07
1.535063e+01,4.773290e-07
1.540064e+01,4.801480e-07
1.545064e+01,4.758260e-07
1.550063e+01,4.793020e-07
1.555063e+01,4.747930e-07
1.560064e+01,4.784570e-07
1.565063e+01,4.736660e-07
1.570064e+01,4.772350e-07
1.575064e+01,4.723500e-07
1.580064e+01,4.762020e-07
1.585063e+01,4.715050e-07
1.590064e+01,4.753570e-07
1.595064e+01,4.703780e-07
1.600064e+01,4.741350e-07
1.605063e+01,4.687810e-07
1.610064e+01,4.730080e-07
1.615064e+01,4.683110e-07
1.620063e+01,4.719750e-07
1.625063e+01,4.670890e-07
1.630063e+01,4.705650e-07
1.635064e+01,4.660560e-07
1.640064e+01,4.699080e-07
1.645063e+01,4.649290e-07
1.650064e+01,4.689680e-07
1.655064e+01,4.640830e-07
1.660064e+01,4.680290e-07
1.665064e+01,4.626740e-07
1.670063e+01,4.671830e-07
1.675063e+01,4.615470e-07
1.680064e+01,4.663380e-07
1.685063e+01,4.604190e-07
1.690064e+01,4.653050e-07
1.695063e+01,4.595740e-07
1.700064e+01,4.644590e-07
1.705064e+01,4.584470e-07
1.710063e+01,4.633320e-07
1.715064e+01,4.576010e-07
1.720064e+01,4.624860e-07
1.725063e+01,4.565680e-07
1.730064e+01,4.618290e-07
1.735063e+01,4.555340e-07
1.740064e+01,4.604190e-07
1.745064e+01,4.550650e-07
1.750064e+01,4.596680e-07
1.755064e+01,4.542190e-07
1.760063e+01,4.586350e-07
1.765064e+01,4.529980e-07
1.770064e+01,4.575070e-07
1.775063e+01,4.525280e-07
1.780064e+01,4.567560e-07
1.785063e+01,4.518710e-07
1.790064e+01,4.555340e-07
1.795063e+01,4.510250e-07
1.800063e+01,4.545950e-07
1.805064e+01,4.505550e-07
1.810063e+01,4.537490e-07
1.815064e+01,4.496160e-07
1.820063e+01,4.525280e-07
1.825063e+01,4.488640e-07
1.830064e+01,4.518710e-07
1.835064e+01,4.478310e-07
1.840064e+01,4.510250e-07
1.845063e+01,4.469850e-07
1.850063e+01,4.498040e-07
1.855064e+01,4.461400e-07
1.860064e+01,4.489580e-07
1.865064e+01,4.453880e-07
1.870063e+01,4.483950e-07
1.875064e+01,4.450130e-07
1.880064e+01,4.471730e-07
1.885064e+01,4.440730e-07
1.890064e+01,4.464220e-07
1.895063e+01,4.436030e-07
1.900064e+01,4.452010e-07
1.905064e+01,4.431340e-07
1.910063e+01,4.437910e-07
1.915063e+01,4.425700e-07
1.920063e+01,4.430400e-07
1.925064e+01,4.422880e-07
1.930064e+01,4.421000e-07
1.935063e+01,4.414430e-07
1.940064e+01,4.411610e-07
1.945063e+01,4.409730e-07
1.950063e+01,4.403150e-07
1.955064e+01,4.402210e-07
1.960064e+01,4.394700e-07
1.965064e+01,4.391880e-07
1.970063e+01,4.387180e-07
1.975064e+01,4.390000e-07
1.980064e+01,4.378730e-07
1.985063e+01,4.380610e-07
1.990064e+01,4.368400e-07
1.995063e+01,4.372150e-07
2.000064e+01,4.360880e-07
2.005064e+01,4.370270e-07
2.010064e+01,4.355240e-07
2.015064e+01,4.359940e-07
2.020063e+01,4.344910e-07
2.025063e+01,4.357120e-07
2.030064e+01,4.336450e-07
2.035063e+01,4.353360e-07
2.040064e+01,4.326120e-07
2.045064e+01,4.349610e-07
2.050063e+01,4.316730e-07
2.055064e+01,4.345850e-07
2.060064e+01,4.307330e-07
2.065064e+01,4.342090e-07
2.070064e+01,4.297000e-07
2.075063e+01,4.335510e-07
2.080063e+01,4.287600e-07
2.085063e+01,4.328940e-07
2.090064e+01,4.281970e-07
2.095063e+01,4.318600e-07
2.100064e+01,4.275390e-07
2.105063e+01,4.315790e-07
2.110063e+01,4.265060e-07
2.115064e+01,4.312030e-07
2.120063e+01,4.261300e-07
2.125063e+01,4.306390e-07
2.130063e+01,4.254720e-07
2.135064e+01,4.296060e-07
2.140064e+01,4.248150e-07
2.145063e+01,4.289480e-07
2.150064e+01,4.243450e-07
2.155063e+01,4.282910e-07
2.160064e+01,4.235930e-07
2.165064e+01,4.277270e-07
2.170063e+01,4.229360e-07
2.175063e+01,4.273510e-07
2.180063e+01,4.222780e-07
2.185063e+01,4.267870e-07
2.190064e+01,4.215270e-07
2.195064e+01,4.263180e-07
2.200064e+01,4.204930e-07
2.205064e+01,4.256600e-07
2.210064e+01,4.200240e-07
2.215064e+01,4.252840e-07
2.220063e+01,4.190840e-07
2.225063e+01,4.248150e-07
2.230063e+01,4.188020e-07
2.235064e+01,4.243450e-07
2.240064e+01,4.182390e-07
2.245063e+01,4.236870e-07
2.250063e+01,4.173930e-07
2.255063e+01,4.228420e-07
2.260063e+01,4.167350e-07
2.265064e+01,4.221840e-07
2.270063e+01,4.165480e-07
2.275063e+01,4.216210e-07
2.280063e+01,4.159840e-07
2.285064e+01,4.206810e-07
2.290064e+01,4.157960e-07
2.295063e+01,4.208690e-07
2.300063e+01,4.145750e-07
2.305063e+01,4.192720e-07
2.310064e+01,4.147630e-07
2.315064e+01,4.188020e-07
2.320063e+01,4.144810e-07
2.325064e+01,4.183330e-07
2.330063e+01,4.139170e-07
2.335063e+01,4.174870e-07
2.340064e+01,4.134470e-07
2.345063e+01,4.168290e-07
2.350063e+01,4.130720e-07
2.355063e+01,4.160780e-07
2.360064e+01,4.125080e-07
2.365064e+01,4.155140e-07
2.370063e+01,4.117560e-07
2.375063e+01,4.151380e-07
2.380063e+01,4.112870e-07
2.385064e+01,4.144810e-07
2.390064e+01,4.109110e-07
2.395063e+01,4.141050e-07
2.400063e+01,4.104410e-07
2.405063e+01,4.133530e-07
2.410063e+01,4.099720e-07
2.415064e+01,4.126020e-07
2.420063e+01,4.096900e-07
2.425064e+01,4.118500e-07
2.430063e+01,4.095020e-07
2.435063e+01,4.113810e-07
2.440064e+01,4.091260e-07
2.445064e+01,4.103470e-07
2.450064e+01,4.091260e-07
2.455063e+01,4.097840e-07
2.460064e+01,4.087500e-07
2.465064e+01,4.088440e-07
2.470064e+01,4.083740e-07
2.475064e+01,4.083740e-07
2.480063e+01,4.078110e-07
2.485064e+01,4.077170e-07
2.490064e+01,4.075290e-07
2.495063e+01,4.073410e-07
2.500064e+01,4.071530e-07
2.505063e+01,4.066830e-07
2.510063e+01,4.067770e-07
2.515064e+01,4.062140e-07
2.520063e+01,4.063080e-07
2.525063e+01,4.056500e-07
2.530063e+01,4.058380e-07
2.535063e+01,4.048990e-07
2.540064e+01,4.056500e-07
2.545063e+01,4.044290e-07
2.550064e+01,4.048990e-07
2.555063e+01,4.041470e-07
2.560064e+01,4.047110e-07
2.565064e+01,4.033950e-07
2.570063e+01,4.048990e-07
2.575064e+01,4.030200e-07
2.580063e+01,4.044290e-07
2.585064e+01,4.020800e-07
2.590064e+01,4.042410e-07
2.595063e+01,4.013290e-07
2.600064e+01,4.037710e-07
2.605063e+01,4.006710e-07
2.610063e+01,4.039590e-07
2.615064e+01,3.997320e-07
2.620063e+01,4.035830e-07
2.625063e+01,3.991680e-07
2.630063e+01,4.033010e-07
2.635063e+01,3.986980e-07
2.640064e+01,4.028320e-07
2.645063e+01,3.979470e-07
2.650064e+01,4.025500e-07
2.655063e+01,3.978530e-07
2.660064e+01,4.023620e-07
2.665064e+01,3.971950e-07
2.670063e+01,4.018920e-07
2.675064e+01,3.970070e-07
2.680063e+01,4.012350e-07
2.685063e+01,3.961620e-07
2.690063e+01,4.011410e-07
2.695063e+01,3.958800e-07
2.700063e+01,4.003890e-07
2.705063e+01,3.955040e-07
2.710063e+01,4.001070e-07
2.715063e+01,3.951280e-07
2.720063e+01,3.998260e-07
2.725064e+01,3.943770e-07
2.730063e+01,3.990740e-07
2.735063e+01,3.940950e-07
2.740063e+01,3.987920e-07
2.745063e+01,3.937190e-07
2.750064e+01,3.983220e-07
2.755063e+01,3.933430e-07
2.760064e+01,3.981350e-07
2.765063e+01,3.927800e-07
2.770063e+01,3.979470e-07
2.775064e+01,3.924980e-07
2.780063e+01,3.977590e-07
2.785064e+01,3.917460e-07
2.790063e+01,3.973830e-07
2.795063e+01,3.912770e-07
2.800064e+01,3.971010e-07
2.805063e+01,3.908070e-07
2.810063e+01,3.966310e-07
2.815063e+01,3.900550e-07
2.820063e+01,3.962560e-07
2.825064e+01,3.903370e-07
2.830063e+01,3.960680e-07
2.835063e+01,3.897740e-07
2.840063e+01,3.952220e-07
2.845064e+01,3.893040e-07
2.850064e+01,3.951280e-07
2.855063e+01,3.890220e-07
2.860064e+01,3.946590e-07
2.865063e+01,3.889280e-07
2.870063e+01,3.940950e-07
2.875063e+01,3.886460e-07
2.880063e+01,3.935310e-07
2.885063e+01,3.881760e-07
2.890063e+01,3.931560e-07
2.895063e+01,3.878950e-07
2.900064e+01,3.925920e-07
2.905063e+01,3.877070e-07
2.910063e+01,3.922160e-07
2.915063e+01,3.874250e-07
2.920063e+01,3.919340e-07
2.925064e+01,3.871430e-07
2.930063e+01,3.915580e-07
2.935064e+01,3.871430e-07
2.940063e+01,3.907130e-07
2.945064e+01,3.868610e-07
2.950064e+01,3.903370e-07
2.955063e+01,3.864850e-07
2.960063e+01,3.900550e-07
2.965063e+01,3.860160e-07
2.970063e+01,3.894920e-07
2.975063e+01,3.858280e-07
2.980063e+01,3.895860e-07
2.985063e+01,3.852640e-07
2.990063e+01,3.889280e-07
2.995064e+01,3.852640e-07
3.000064e+01,3.887400e-07
3.005063e+01,3.850760e-07
3.010063e+01,3.879890e-07
3.015063e+01,3.847940e-07
3.020063e+01,3.874250e-07
3.025063e+01,3.845130e-07
3.030063e+01,3.871430e-07
3.035064e+01,3.847940e-07
3.040063e+01,3.863920e-07
3.045063e+01,3.846070e-07
3.050064e+01,3.858280e-07
3.055063e+01,3.846070e-07
3.060063e+01,3.853580e-07
3.065063e+01,3.845130e-07
3.070064e+01,3.846070e-07
3.075063e+01,3.843250e-07
3.080063e+01,3.845130e-07
3.085064e+01,3.840430e-07
3.090063e+01,3.839490e-07
3.095063e+01,3.835730e-07
3.100063e+01,3.836670e-07
3.105063e+01,3.833850e-07
3.110064e+01,3.833850e-07
3.115063e+01,3.831040e-07
3.120063e+01,3.830100e-07
3.125064e+01,3.831970e-07
3.130063e+01,3.824460e-07
3.135064e+01,3.829160e-07
3.140063e+01,3.819760e-07
3.145063e+01,3.827280e-07
3.150064e+01,3.817880e-07
3.155063e+01,3.823520e-07
3.160064e+01,3.813190e-07
3.165063e+01,3.824460e-07
3.170063e+01,3.809430e-07
3.175064e+01,3.822580e-07
3.180063e+01,3.801910e-07
3.185064e+01,3.820700e-07
3.190063e+01,3.799090e-07
3.195063e+01,3.822580e-07
3.200064e+01,3.794400e-07
3.205063e+01,3.820700e-07
3.210063e+01,3.789700e-07
3.215063e+01,3.820700e-07
3.220064e+01,3.776550e-07
3.225064e+01,3.822580e-07
3.230063e+01,3.774670e-07
3.235063e+01,3.820700e-07
3.240064e+01,3.769970e-07
3.245064e+01,3.817880e-07
3.250064e+01,3.769970e-07
3.255063e+01,3.814120e-07
3.260063e+01,3.762460e-07
3.265064e+01,3.813190e-07
3.270064e+01,3.760580e-07
3.275064e+01,3.810370e-07
3.280063e+01,3.761520e-07
3.285063e+01,3.806610e-07
3.290064e+01,3.755880e-07
3.295064e+01,3.800970e-07
3.300063e+01,3.753060e-07
3.305063e+01,3.801910e-07
3.310064e+01,3.749300e-07
3.315064e+01,3.797220e-07
3.320064e+01,3.748360e-07
3.325063e+01,3.795340e-07
3.330063e+01,3.745550e-07
3.335063e+01,3.792520e-07
3.340064e+01,3.743670e-07
3.345064e+01,3.790640e-07
3.350063e+01,3.740850e-07
3.355063e+01,3.790640e-07
3.360063e+01,3.734270e-07
3.365064e+01,3.789700e-07
3.370064e+01,3.732390e-07
3.375064e+01,3.786880e-07
3.380064e+01,3.727700e-07
3.385063e+01,3.785940e-07
3.390063e+01,3.726760e-07
3.395063e+01,3.782180e-07
3.400064e+01,3.721120e-07
3.405064e+01,3.778430e-07
3.410063e+01,3.719240e-07
3.415063e+01,3.780310e-07
3.420063e+01,3.715480e-07
3.425064e+01,3.778430e-07
3.430064e+01,3.716420e-07
3.435063e+01,3.772790e-07
3.440063e+01,3.714540e-07
3.445064e+01,3.770910e-07
3.450064e+01,3.709850e-07
3.455064e+01,3.764330e-07
3.460063e+01,3.710790e-07
3.465063e+01,3.762460e-07
3.470063e+01,3.708910e-07
3.475064e+01,3.757760e-07
3.480064e+01,3.707970e-07
3.485063e+01,3.754000e-07
3.490063e+01,3.704210e-07
3.495064e+01,3.751180e-07
3.500064e+01,3.707970e-07
3.505064e+01,3.748360e-07
3.510063e+01,3.701390e-07
3.515063e+01,3.743670e-07
3.520064e+01,3.702330e-07
3.525064e+01,3.739910e-07
3.530064e+01,3.702330e-07
3.535063e+01,3.734270e-07
3.540064e+01,3.698570e-07
3.545064e+01,3.735210e-07
3.550064e+01,3.698570e-07
3.555064e+01,3.730510e-07
3.560063e+01,3.694820e-07
3.565064e+01,3.727700e-07
3.570064e+01,3.693880e-07
3.575064e+01,3.728640e-07
3.580064e+01,3.691060e-07
3.585063e+01,3.724880e-07
3.590064e+01,3.691060e-07
3.595063e+01,3.723000e-07
3.600064e+01,3.688240e-07
3.605064e+01,3.715480e-07
3.610063e+01,3.686360e-07
3.615064e+01,3.712670e-07
3.620063e+01,3.690120e-07
3.625064e+01,3.713600e-07
3.630064e+01,3.689180e-07
3.635063e+01,3.705150e-07
3.640063e+01,3.691060e-07
3.645064e+01,3.701390e-07
3.650064e+01,3.691060e-07
3.655064e+01,3.695760e-07
3.660063e+01,3.691060e-07
3.665064e+01,3.691060e-07
3.670064e+01,3.689180e-07
3.675064e+01,3.689180e-07
3.680064e+01,3.688240e-07
3.685063e+01,3.684480e-07
3.690064e+01,3.686360e-07
3.695063e+01,3.681660e-07
3.700064e+01,3.681660e-07
3.705063e+01,3.680720e-07
3.710063e+01,3.682600e-07
3.715063e+01,3.679780e-07
3.720064e+01,3.678850e-07
3.725064e+01,3.675090e-07
3.730063e+01,3.680720e-07
3.735063e+01,3.672270e-07
3.740064e+01,3.677910e-07
3.745064e+01,3.668510e-07
3.750064e+01,3.676970e-07
3.755063e+01,3.668510e-07
3.760063e+01,3.676970e-07
3.765063e+01,3.664750e-07
3.770064e+01,3.675090e-07
3.775064e+01,3.659120e-07
3.780063e+01,3.676970e-07
3.785063e+01,3.653480e-07
3.790064e+01,3.679780e-07
3.795064e+01,3.648780e-07
3.800064e+01,3.674150e-07
3.805063e+01,3.645030e-07
3.810063e+01,3.678850e-07
3.815063e+01,3.639390e-07
3.820064e+01,3.678850e-07
3.825064e+01,3.637510e-07
3.830063e+01,3.676970e-07
3.835063e+01,3.630930e-07
3.840063e+01,3.676030e-07
